# Artificial heat of hydration data, at temperature 40
# With material paramters:
# B1: 0.0002916
# B2: = 0.0024229
# eta: = 5.554
# alpha_max: = 0.875
# E_act: = 47002
# T_ref: = 25
# Q_pot: = 500000.0
# and numerical parameters
# dt: = 1800
# total time: = 2419200
#
# Time in hours        Heat released       
            0.00000000           0.00000000
         1800.00000000          14.66685457
         3600.00000000          40.56877343
         5400.00000000          68.69867643
         7200.00000000          94.49538364
         9000.00000000         116.88083659
        10800.00000000         136.05534486
        12600.00000000         152.52465393
        14400.00000000         166.78818599
        16200.00000000         179.26308288
        18000.00000000         190.28027103
        19800.00000000         200.09856375
        21600.00000000         208.92048187
        23400.00000000         216.90558201
        25200.00000000         224.18076269
        27000.00000000         230.84799600
        28800.00000000         236.99007874
        30600.00000000         242.67491612
        32400.00000000         247.95873200
        34200.00000000         252.88849474
        36000.00000000         257.50376765
        37800.00000000         261.83813418
        39600.00000000         265.92030620
        41400.00000000         269.77499394
        43200.00000000         273.42359491
        45000.00000000         276.88474426
        46800.00000000         280.17475796
        48600.00000000         283.30799232
        50400.00000000         286.29713800
        52200.00000000         289.15346181
        54000.00000000         291.88700705
        55800.00000000         294.50676040
        57600.00000000         297.02079186
        59400.00000000         299.43637254
        61200.00000000         301.76007450
        63000.00000000         303.99785574
        64800.00000000         306.15513274
        66600.00000000         308.23684288
        68400.00000000         310.24749819
        70200.00000000         312.19123186
        72000.00000000         314.07183868
        73800.00000000         315.89281033
        75600.00000000         317.65736614
        77400.00000000         319.36848025
        79200.00000000         321.02890538
        81000.00000000         322.64119388
        82800.00000000         324.20771637
        84600.00000000         325.73067830
        86400.00000000         327.21213462
        88200.00000000         328.65400301
        90000.00000000         330.05807553
        91800.00000000         331.42602925
        93600.00000000         332.75943564
        95400.00000000         334.05976917
        97200.00000000         335.32841494
        99000.00000000         336.56667567
       100800.00000000         337.77577797
       102600.00000000         338.95687809
       104400.00000000         340.11106706
       106200.00000000         341.23937549
       108000.00000000         342.34277781
       109800.00000000         343.42219626
       111600.00000000         344.47850445
       113400.00000000         345.51253072
       115200.00000000         346.52506111
       117000.00000000         347.51684216
       118800.00000000         348.48858349
       120600.00000000         349.44096013
       122400.00000000         350.37461471
       124200.00000000         351.29015946
       126000.00000000         352.18817809
       127800.00000000         353.06922746
       129600.00000000         353.93383922
       131400.00000000         354.78252126
       133200.00000000         355.61575910
       135000.00000000         356.43401714
       136800.00000000         357.23773987
       138600.00000000         358.02735297
       140400.00000000         358.80326432
       142200.00000000         359.56586500
       144000.00000000         360.31553014
       145800.00000000         361.05261981
       147600.00000000         361.77747976
       149400.00000000         362.49044219
       151200.00000000         363.19182642
       153000.00000000         363.88193953
       154800.00000000         364.56107701
       156600.00000000         365.22952326
       158400.00000000         365.88755218
       160200.00000000         366.53542766
       162000.00000000         367.17340406
       163800.00000000         367.80172663
       165600.00000000         368.42063197
       167400.00000000         369.03034839
       169200.00000000         369.63109631
       171000.00000000         370.22308861
       172800.00000000         370.80653097
       174600.00000000         371.38162216
       176400.00000000         371.94855438
       178200.00000000         372.50751350
       180000.00000000         373.05867937
       181800.00000000         373.60222604
       183600.00000000         374.13832204
       185400.00000000         374.66713056
       187200.00000000         375.18880972
       189000.00000000         375.70351272
       190800.00000000         376.21138809
       192600.00000000         376.71257985
       194400.00000000         377.20722769
       196200.00000000         377.69546713
       198000.00000000         378.17742972
       199800.00000000         378.65324313
       201600.00000000         379.12303135
       203400.00000000         379.58691482
       205200.00000000         380.04501052
       207000.00000000         380.49743216
       208800.00000000         380.94429025
       210600.00000000         381.38569226
       212400.00000000         381.82174269
       214200.00000000         382.25254319
       216000.00000000         382.67819267
       217800.00000000         383.09878739
       219600.00000000         383.51442104
       221400.00000000         383.92518487
       223200.00000000         384.33116771
       225000.00000000         384.73245611
       226800.00000000         385.12913439
       228600.00000000         385.52128470
       230400.00000000         385.90898713
       232200.00000000         386.29231975
       234000.00000000         386.67135869
       235800.00000000         387.04617820
       237600.00000000         387.41685069
       239400.00000000         387.78344682
       241200.00000000         388.14603555
       243000.00000000         388.50468416
       244800.00000000         388.85945835
       246600.00000000         389.21042225
       248400.00000000         389.55763851
       250200.00000000         389.90116829
       252000.00000000         390.24107135
       253800.00000000         390.57740609
       255600.00000000         390.91022955
       257400.00000000         391.23959751
       259200.00000000         391.56556447
       261000.00000000         391.88818372
       262800.00000000         392.20750738
       264600.00000000         392.52358641
       266400.00000000         392.83647065
       268200.00000000         393.14620889
       270000.00000000         393.45284881
       271800.00000000         393.75643713
       273600.00000000         394.05701954
       275400.00000000         394.35464076
       277200.00000000         394.64934459
       279000.00000000         394.94117390
       280800.00000000         395.23017068
       282600.00000000         395.51637605
       284400.00000000         395.79983029
       286200.00000000         396.08057285
       288000.00000000         396.35864241
       289800.00000000         396.63407684
       291600.00000000         396.90691327
       293400.00000000         397.17718809
       295200.00000000         397.44493698
       297000.00000000         397.71019490
       298800.00000000         397.97299616
       300600.00000000         398.23337437
       302400.00000000         398.49136252
       304200.00000000         398.74699295
       306000.00000000         399.00029740
       307800.00000000         399.25130701
       309600.00000000         399.50005231
       311400.00000000         399.74656329
       313200.00000000         399.99086936
       315000.00000000         400.23299940
       316800.00000000         400.47298175
       318600.00000000         400.71084425
       320400.00000000         400.94661420
       322200.00000000         401.18031844
       324000.00000000         401.41198332
       325800.00000000         401.64163470
       327600.00000000         401.86929801
       329400.00000000         402.09499820
       331200.00000000         402.31875981
       333000.00000000         402.54060692
       334800.00000000         402.76056323
       336600.00000000         402.97865200
       338400.00000000         403.19489610
       340200.00000000         403.40931800
       342000.00000000         403.62193981
       343800.00000000         403.83278324
       345600.00000000         404.04186965
       347400.00000000         404.24922003
       349200.00000000         404.45485503
       351000.00000000         404.65879496
       352800.00000000         404.86105979
       354600.00000000         405.06166915
       356400.00000000         405.26064238
       358200.00000000         405.45799847
       360000.00000000         405.65375613
       361800.00000000         405.84793375
       363600.00000000         406.04054944
       365400.00000000         406.23162102
       367200.00000000         406.42116601
       369000.00000000         406.60920168
       370800.00000000         406.79574501
       372600.00000000         406.98081272
       374400.00000000         407.16442127
       376200.00000000         407.34658687
       378000.00000000         407.52732548
       379800.00000000         407.70665279
       381600.00000000         407.88458429
       383400.00000000         408.06113522
       385200.00000000         408.23632058
       387000.00000000         408.41015514
       388800.00000000         408.58265348
       390600.00000000         408.75382992
       392400.00000000         408.92369861
       394200.00000000         409.09227346
       396000.00000000         409.25956819
       397800.00000000         409.42559631
       399600.00000000         409.59037114
       401400.00000000         409.75390581
       403200.00000000         409.91621325
       405000.00000000         410.07730621
       406800.00000000         410.23719726
       408600.00000000         410.39589879
       410400.00000000         410.55342301
       412200.00000000         410.70978195
       414000.00000000         410.86498749
       415800.00000000         411.01905134
       417600.00000000         411.17198503
       419400.00000000         411.32379994
       421200.00000000         411.47450730
       423000.00000000         411.62411817
       424800.00000000         411.77264347
       426600.00000000         411.92009397
       428400.00000000         412.06648029
       430200.00000000         412.21181290
       432000.00000000         412.35610215
       433800.00000000         412.49935823
       435600.00000000         412.64159120
       437400.00000000         412.78281098
       439200.00000000         412.92302738
       441000.00000000         413.06225005
       442800.00000000         413.20048854
       444600.00000000         413.33775226
       446400.00000000         413.47405050
       448200.00000000         413.60939243
       450000.00000000         413.74378709
       451800.00000000         413.87724343
       453600.00000000         414.00977026
       455400.00000000         414.14137629
       457200.00000000         414.27207011
       459000.00000000         414.40186022
       460800.00000000         414.53075498
       462600.00000000         414.65876267
       464400.00000000         414.78589147
       466200.00000000         414.91214943
       468000.00000000         415.03754453
       469800.00000000         415.16208462
       471600.00000000         415.28577749
       473400.00000000         415.40863081
       475200.00000000         415.53065215
       477000.00000000         415.65184901
       478800.00000000         415.77222878
       480600.00000000         415.89179877
       482400.00000000         416.01056619
       484200.00000000         416.12853818
       486000.00000000         416.24572178
       487800.00000000         416.36212396
       489600.00000000         416.47775158
       491400.00000000         416.59261146
       493200.00000000         416.70671030
       495000.00000000         416.82005474
       496800.00000000         416.93265135
       498600.00000000         417.04450659
       500400.00000000         417.15562689
       502200.00000000         417.26601857
       504000.00000000         417.37568788
       505800.00000000         417.48464103
       507600.00000000         417.59288411
       509400.00000000         417.70042319
       511200.00000000         417.80726422
       513000.00000000         417.91341313
       514800.00000000         418.01887575
       516600.00000000         418.12365786
       518400.00000000         418.22776517
       520200.00000000         418.33120331
       522000.00000000         418.43397788
       523800.00000000         418.53609440
       525600.00000000         418.63755832
       527400.00000000         418.73837505
       529200.00000000         418.83854991
       531000.00000000         418.93808820
       532800.00000000         419.03699512
       534600.00000000         419.13527586
       536400.00000000         419.23293551
       538200.00000000         419.32997913
       540000.00000000         419.42641172
       541800.00000000         419.52223822
       543600.00000000         419.61746352
       545400.00000000         419.71209246
       547200.00000000         419.80612983
       549000.00000000         419.89958037
       550800.00000000         419.99244875
       552600.00000000         420.08473962
       554400.00000000         420.17645756
       556200.00000000         420.26760711
       558000.00000000         420.35819277
       559800.00000000         420.44821896
       561600.00000000         420.53769011
       563400.00000000         420.62661055
       565200.00000000         420.71498459
       567000.00000000         420.80281649
       568800.00000000         420.89011048
       570600.00000000         420.97687073
       572400.00000000         421.06310136
       574200.00000000         421.14880648
       576000.00000000         421.23399013
       577800.00000000         421.31865632
       579600.00000000         421.40280900
       581400.00000000         421.48645212
       583200.00000000         421.56958956
       585000.00000000         421.65222517
       586800.00000000         421.73436275
       588600.00000000         421.81600608
       590400.00000000         421.89715890
       592200.00000000         421.97782490
       594000.00000000         422.05800774
       595800.00000000         422.13771104
       597600.00000000         422.21693841
       599400.00000000         422.29569338
       601200.00000000         422.37397948
       603000.00000000         422.45180020
       604800.00000000         422.52915899
       606600.00000000         422.60605927
       608400.00000000         422.68250441
       610200.00000000         422.75849777
       612000.00000000         422.83404268
       613800.00000000         422.90914242
       615600.00000000         422.98380024
       617400.00000000         423.05801938
       619200.00000000         423.13180303
       621000.00000000         423.20515436
       622800.00000000         423.27807649
       624600.00000000         423.35057254
       626400.00000000         423.42264558
       628200.00000000         423.49429866
       630000.00000000         423.56553479
       631800.00000000         423.63635698
       633600.00000000         423.70676818
       635400.00000000         423.77677133
       637200.00000000         423.84636934
       639000.00000000         423.91556508
       640800.00000000         423.98436142
       642600.00000000         424.05276119
       644400.00000000         424.12076718
       646200.00000000         424.18838217
       648000.00000000         424.25560893
       649800.00000000         424.32245016
       651600.00000000         424.38890859
       653400.00000000         424.45498688
       655200.00000000         424.52068770
       657000.00000000         424.58601366
       658800.00000000         424.65096739
       660600.00000000         424.71555145
       662400.00000000         424.77976842
       664200.00000000         424.84362083
       666000.00000000         424.90711120
       667800.00000000         424.97024201
       669600.00000000         425.03301574
       671400.00000000         425.09543485
       673200.00000000         425.15750175
       675000.00000000         425.21921885
       676800.00000000         425.28058855
       678600.00000000         425.34161320
       680400.00000000         425.40229515
       682200.00000000         425.46263672
       684000.00000000         425.52264022
       685800.00000000         425.58230793
       687600.00000000         425.64164212
       689400.00000000         425.70064502
       691200.00000000         425.75931888
       693000.00000000         425.81766588
       694800.00000000         425.87568823
       696600.00000000         425.93338808
       698400.00000000         425.99076760
       700200.00000000         426.04782891
       702000.00000000         426.10457413
       703800.00000000         426.16100535
       705600.00000000         426.21712466
       707400.00000000         426.27293411
       709200.00000000         426.32843575
       711000.00000000         426.38363161
       712800.00000000         426.43852370
       714600.00000000         426.49311402
       716400.00000000         426.54740453
       718200.00000000         426.60139720
       720000.00000000         426.65509398
       721800.00000000         426.70849680
       723600.00000000         426.76160756
       725400.00000000         426.81442816
       727200.00000000         426.86696050
       729000.00000000         426.91920643
       730800.00000000         426.97116780
       732600.00000000         427.02284645
       734400.00000000         427.07424421
       736200.00000000         427.12536287
       738000.00000000         427.17620424
       739800.00000000         427.22677008
       741600.00000000         427.27706217
       743400.00000000         427.32708225
       745200.00000000         427.37683206
       747000.00000000         427.42631331
       748800.00000000         427.47552772
       750600.00000000         427.52447698
       752400.00000000         427.57316277
       754200.00000000         427.62158677
       756000.00000000         427.66975061
       757800.00000000         427.71765595
       759600.00000000         427.76530441
       761400.00000000         427.81269760
       763200.00000000         427.85983714
       765000.00000000         427.90672461
       766800.00000000         427.95336159
       768600.00000000         427.99974965
       770400.00000000         428.04589033
       772200.00000000         428.09178519
       774000.00000000         428.13743574
       775800.00000000         428.18284351
       777600.00000000         428.22801001
       779400.00000000         428.27293672
       781200.00000000         428.31762514
       783000.00000000         428.36207673
       784800.00000000         428.40629296
       786600.00000000         428.45027527
       788400.00000000         428.49402510
       790200.00000000         428.53754389
       792000.00000000         428.58083303
       793800.00000000         428.62389396
       795600.00000000         428.66672805
       797400.00000000         428.70933669
       799200.00000000         428.75172126
       801000.00000000         428.79388312
       802800.00000000         428.83582363
