# Artificial heat of hydration data, at temperature 15
# With material paramters:
# B1: 0.0002916
# B2: = 0.0024229
# eta: = 5.554
# alpha_max: = 0.875
# E_act: = 47002
# T_ref: = 25
# Q_pot: = 500000.0
# and numerical parameters
# dt: = 1800
# total time: = 2419200
#
# Time in hours        Heat released       
            0.00000000           0.00000000
         1800.00000000           0.42845403
         3600.00000000           0.98342960
         5400.00000000           1.69823533
         7200.00000000           2.61239503
         9000.00000000           3.77129646
        10800.00000000           5.22487674
        12600.00000000           7.02504744
        14400.00000000           9.22174114
        16200.00000000          11.85781056
        18000.00000000          14.96347106
        19800.00000000          18.55137349
        21600.00000000          22.61349676
        23400.00000000          27.12071784
        25200.00000000          32.02522934
        27000.00000000          37.26521909
        28800.00000000          42.77072386
        30600.00000000          48.46948195
        32400.00000000          54.29187757
        34200.00000000          60.17450084
        36000.00000000          66.06225154
        37800.00000000          71.90918600
        39600.00000000          77.67842953
        41400.00000000          83.34148639
        43200.00000000          88.87722728
        45000.00000000          94.27075972
        46800.00000000          99.51231524
        48600.00000000         104.59623037
        50400.00000000         109.52005731
        52200.00000000         114.28381383
        54000.00000000         118.88936660
        55800.00000000         123.33993420
        57600.00000000         127.63969295
        59400.00000000         131.79346877
        61200.00000000         135.80649923
        63000.00000000         139.68425207
        64800.00000000         143.43228865
        66600.00000000         147.05616264
        68400.00000000         150.56134627
        70200.00000000         153.95317778
        72000.00000000         157.23682531
        73800.00000000         160.41726315
        75600.00000000         163.49925743
        77400.00000000         166.48735891
        79200.00000000         169.38590088
        81000.00000000         172.19900100
        82800.00000000         174.93056574
        84600.00000000         177.58429681
        86400.00000000         180.16369884
        88200.00000000         182.67208782
        90000.00000000         185.11260001
        91800.00000000         187.48820106
        93600.00000000         189.80169505
        95400.00000000         192.05573342
        97200.00000000         194.25282366
        99000.00000000         196.39533763
       100800.00000000         198.48551958
       102600.00000000         200.52549372
       104400.00000000         202.51727149
       106200.00000000         204.46275831
       108000.00000000         206.36376002
       109800.00000000         208.22198893
       111600.00000000         210.03906946
       113400.00000000         211.81654345
       115200.00000000         213.55587514
       117000.00000000         215.25845582
       118800.00000000         216.92560821
       120600.00000000         218.55859046
       122400.00000000         220.15860001
       124200.00000000         221.72677714
       126000.00000000         223.26420828
       127800.00000000         224.77192909
       129600.00000000         226.25092742
       131400.00000000         227.70214597
       133200.00000000         229.12648487
       135000.00000000         230.52480401
       136800.00000000         231.89792531
       138600.00000000         233.24663476
       140400.00000000         234.57168441
       142200.00000000         235.87379415
       144000.00000000         237.15365345
       145800.00000000         238.41192296
       147600.00000000         239.64923604
       149400.00000000         240.86620010
       151200.00000000         242.06339802
       153000.00000000         243.24138934
       154800.00000000         244.40071145
       156600.00000000         245.54188069
       158400.00000000         246.66539340
       160200.00000000         247.77172688
       162000.00000000         248.86134032
       163800.00000000         249.93467567
       165600.00000000         250.99215847
       167400.00000000         252.03419859
       169200.00000000         253.06119098
       171000.00000000         254.07351639
       172800.00000000         255.07154194
       174600.00000000         256.05562182
       176400.00000000         257.02609782
       178200.00000000         257.98329991
       180000.00000000         258.92754673
       181800.00000000         259.85914613
       183600.00000000         260.77839557
       185400.00000000         261.68558264
       187200.00000000         262.58098542
       189000.00000000         263.46487293
       190800.00000000         264.33750545
       192600.00000000         265.19913495
       194400.00000000         266.05000535
       196200.00000000         266.89035295
       198000.00000000         267.72040662
       199800.00000000         268.54038819
       201600.00000000         269.35051269
       203400.00000000         270.15098862
       205200.00000000         270.94201819
       207000.00000000         271.72379761
       208800.00000000         272.49651725
       210600.00000000         273.26036192
       212400.00000000         274.01551107
       214200.00000000         274.76213896
       216000.00000000         275.50041487
       217800.00000000         276.23050329
       219600.00000000         276.95256410
       221400.00000000         277.66675270
       223200.00000000         278.37322021
       225000.00000000         279.07211362
       226800.00000000         279.76357590
       228600.00000000         280.44774618
       230400.00000000         281.12475985
       232200.00000000         281.79474872
       234000.00000000         282.45784114
       235800.00000000         283.11416209
       237600.00000000         283.76383331
       239400.00000000         284.40697341
       241200.00000000         285.04369798
       243000.00000000         285.67411967
       244800.00000000         286.29834830
       246600.00000000         286.91649097
       248400.00000000         287.52865210
       250200.00000000         288.13493355
       252000.00000000         288.73543471
       253800.00000000         289.33025254
       255600.00000000         289.91948168
       257400.00000000         290.50321451
       259200.00000000         291.08154122
       261000.00000000         291.65454988
       262800.00000000         292.22232650
       264600.00000000         292.78495508
       266400.00000000         293.34251771
       268200.00000000         293.89509458
       270000.00000000         294.44276407
       271800.00000000         294.98560279
       273600.00000000         295.52368563
       275400.00000000         296.05708581
       277200.00000000         296.58587493
       279000.00000000         297.11012303
       280800.00000000         297.62989860
       282600.00000000         298.14526866
       284400.00000000         298.65629880
       286200.00000000         299.16305317
       288000.00000000         299.66559459
       289800.00000000         300.16398454
       291600.00000000         300.65828321
       293400.00000000         301.14854953
       295200.00000000         301.63484122
       297000.00000000         302.11721480
       298800.00000000         302.59572565
       300600.00000000         303.07042801
       302400.00000000         303.54137503
       304200.00000000         304.00861879
       306000.00000000         304.47221033
       307800.00000000         304.93219968
       309600.00000000         305.38863587
       311400.00000000         305.84156701
       313200.00000000         306.29104021
       315000.00000000         306.73710173
       316800.00000000         307.17979690
       318600.00000000         307.61917018
       320400.00000000         308.05526522
       322200.00000000         308.48812481
       324000.00000000         308.91779095
       325800.00000000         309.34430485
       327600.00000000         309.76770695
       329400.00000000         310.18803696
       331200.00000000         310.60533383
       333000.00000000         311.01963583
       334800.00000000         311.43098052
       336600.00000000         311.83940477
       338400.00000000         312.24494481
       340200.00000000         312.64763620
       342000.00000000         313.04751389
       343800.00000000         313.44461218
       345600.00000000         313.83896481
       347400.00000000         314.23060490
       349200.00000000         314.61956499
       351000.00000000         315.00587708
       352800.00000000         315.38957260
       354600.00000000         315.77068245
       356400.00000000         316.14923700
       358200.00000000         316.52526611
       360000.00000000         316.89879913
       361800.00000000         317.26986493
       363600.00000000         317.63849188
       365400.00000000         318.00470790
       367200.00000000         318.36854044
       369000.00000000         318.73001648
       370800.00000000         319.08916260
       372600.00000000         319.44600490
       374400.00000000         319.80056910
       376200.00000000         320.15288048
       378000.00000000         320.50296393
       379800.00000000         320.85084393
       381600.00000000         321.19654458
       383400.00000000         321.54008959
       385200.00000000         321.88150232
       387000.00000000         322.22080574
       388800.00000000         322.55802246
       390600.00000000         322.89317478
       392400.00000000         323.22628461
       394200.00000000         323.55737354
       396000.00000000         323.88646284
       397800.00000000         324.21357345
       399600.00000000         324.53872599
       401400.00000000         324.86194078
       403200.00000000         325.18323782
       405000.00000000         325.50263682
       406800.00000000         325.82015720
       408600.00000000         326.13581810
       410400.00000000         326.44963835
       412200.00000000         326.76163654
       414000.00000000         327.07183096
       415800.00000000         327.38023966
       417600.00000000         327.68688040
       419400.00000000         327.99177072
       421200.00000000         328.29492788
       423000.00000000         328.59636890
       424800.00000000         328.89611057
       426600.00000000         329.19416943
       428400.00000000         329.49056180
       430200.00000000         329.78530376
       432000.00000000         330.07841116
       433800.00000000         330.36989966
       435600.00000000         330.65978466
       437400.00000000         330.94808139
       439200.00000000         331.23480485
       441000.00000000         331.51996983
       442800.00000000         331.80359093
       444600.00000000         332.08568255
       446400.00000000         332.36625890
       448200.00000000         332.64533398
       450000.00000000         332.92292163
       451800.00000000         333.19903550
       453600.00000000         333.47368903
       455400.00000000         333.74689552
       457200.00000000         334.01866808
       459000.00000000         334.28901965
       460800.00000000         334.55796299
       462600.00000000         334.82551071
       464400.00000000         335.09167526
       466200.00000000         335.35646890
       468000.00000000         335.61990377
       469800.00000000         335.88199182
       471600.00000000         336.14274489
       473400.00000000         336.40217463
       475200.00000000         336.66029256
       477000.00000000         336.91711006
       478800.00000000         337.17263836
       480600.00000000         337.42688854
       482400.00000000         337.67987156
       484200.00000000         337.93159825
       486000.00000000         338.18207927
       487800.00000000         338.43132519
       489600.00000000         338.67934643
       491400.00000000         338.92615328
       493200.00000000         339.17175592
       495000.00000000         339.41616440
       496800.00000000         339.65938863
       498600.00000000         339.90143843
       500400.00000000         340.14232349
       502200.00000000         340.38205339
       504000.00000000         340.62063757
       505800.00000000         340.85808540
       507600.00000000         341.09440611
       509400.00000000         341.32960884
       511200.00000000         341.56370259
       513000.00000000         341.79669630
       514800.00000000         342.02859878
       516600.00000000         342.25941873
       518400.00000000         342.48916478
       520200.00000000         342.71784543
       522000.00000000         342.94546909
       523800.00000000         343.17204410
       525600.00000000         343.39757866
       527400.00000000         343.62208092
       529200.00000000         343.84555891
       531000.00000000         344.06802058
       532800.00000000         344.28947378
       534600.00000000         344.50992631
       536400.00000000         344.72938582
       538200.00000000         344.94785994
       540000.00000000         345.16535617
       541800.00000000         345.38188194
       543600.00000000         345.59744461
       545400.00000000         345.81205145
       547200.00000000         346.02570965
       549000.00000000         346.23842632
       550800.00000000         346.45020850
       552600.00000000         346.66106315
       554400.00000000         346.87099715
       556200.00000000         347.08001732
       558000.00000000         347.28813040
       559800.00000000         347.49534304
       561600.00000000         347.70166186
       563400.00000000         347.90709336
       565200.00000000         348.11164402
       567000.00000000         348.31532022
       568800.00000000         348.51812827
       570600.00000000         348.72007445
       572400.00000000         348.92116494
       574200.00000000         349.12140587
       576000.00000000         349.32080329
       577800.00000000         349.51936322
       579600.00000000         349.71709158
       581400.00000000         349.91399427
       583200.00000000         350.11007709
       585000.00000000         350.30534581
       586800.00000000         350.49980613
       588600.00000000         350.69346369
       590400.00000000         350.88632407
       592200.00000000         351.07839281
       594000.00000000         351.26967538
       595800.00000000         351.46017720
       597600.00000000         351.64990363
       599400.00000000         351.83886000
       601200.00000000         352.02705155
       603000.00000000         352.21448350
       604800.00000000         352.40116100
       606600.00000000         352.58708916
       608400.00000000         352.77227304
       610200.00000000         352.95671764
       612000.00000000         353.14042792
       613800.00000000         353.32340879
       615600.00000000         353.50566511
       617400.00000000         353.68720171
       619200.00000000         353.86802334
       621000.00000000         354.04813474
       622800.00000000         354.22754058
       624600.00000000         354.40624550
       626400.00000000         354.58425408
       628200.00000000         354.76157088
       630000.00000000         354.93820040
       631800.00000000         355.11414710
       633600.00000000         355.28941540
       635400.00000000         355.46400968
       637200.00000000         355.63793427
       639000.00000000         355.81119348
       640800.00000000         355.98379157
       642600.00000000         356.15573274
       644400.00000000         356.32702118
       646200.00000000         356.49766103
       648000.00000000         356.66765640
       649800.00000000         356.83701135
       651600.00000000         357.00572990
       653400.00000000         357.17381606
       655200.00000000         357.34127377
       657000.00000000         357.50810696
       658800.00000000         357.67431950
       660600.00000000         357.83991526
       662400.00000000         358.00489805
       664200.00000000         358.16927164
       666000.00000000         358.33303979
       667800.00000000         358.49620621
       669600.00000000         358.65877457
       671400.00000000         358.82074854
       673200.00000000         358.98213173
       675000.00000000         359.14292771
       676800.00000000         359.30314005
       678600.00000000         359.46277227
       680400.00000000         359.62182786
       682200.00000000         359.78031028
       684000.00000000         359.93822296
       685800.00000000         360.09556931
       687600.00000000         360.25235270
       689400.00000000         360.40857646
       691200.00000000         360.56424392
       693000.00000000         360.71935836
       694800.00000000         360.87392305
       696600.00000000         361.02794120
       698400.00000000         361.18141603
       700200.00000000         361.33435071
       702000.00000000         361.48674839
       703800.00000000         361.63861220
       705600.00000000         361.78994523
       707400.00000000         361.94075054
       709200.00000000         362.09103120
       711000.00000000         362.24079021
       712800.00000000         362.39003057
       714600.00000000         362.53875525
       716400.00000000         362.68696720
       718200.00000000         362.83466934
       720000.00000000         362.98186456
       721800.00000000         363.12855575
       723600.00000000         363.27474574
       725400.00000000         363.42043736
       727200.00000000         363.56563343
       729000.00000000         363.71033671
       730800.00000000         363.85454997
       732600.00000000         363.99827595
       734400.00000000         364.14151735
       736200.00000000         364.28427688
       738000.00000000         364.42655719
       739800.00000000         364.56836095
       741600.00000000         364.70969078
       743400.00000000         364.85054928
       745200.00000000         364.99093904
       747000.00000000         365.13086264
       748800.00000000         365.27032261
       750600.00000000         365.40932148
       752400.00000000         365.54786175
       754200.00000000         365.68594592
       756000.00000000         365.82357645
       757800.00000000         365.96075579
       759600.00000000         366.09748636
       761400.00000000         366.23377058
       763200.00000000         366.36961084
       765000.00000000         366.50500951
       766800.00000000         366.63996894
       768600.00000000         366.77449147
       770400.00000000         366.90857942
       772200.00000000         367.04223509
       774000.00000000         367.17546076
       775800.00000000         367.30825871
       777600.00000000         367.44063117
       779400.00000000         367.57258037
       781200.00000000         367.70410854
       783000.00000000         367.83521787
       784800.00000000         367.96591055
       786600.00000000         368.09618873
       788400.00000000         368.22605457
       790200.00000000         368.35551019
       792000.00000000         368.48455772
       793800.00000000         368.61319926
       795600.00000000         368.74143689
       797400.00000000         368.86927268
       799200.00000000         368.99670869
       801000.00000000         369.12374696
       802800.00000000         369.25038950
