# Artificial heat of hydration data, at temperature 80
# With material paramters:
# B1: 0.0002916
# B2: = 0.0024229
# eta: = 5.554
# alpha_max: = 0.875
# E_act: = 47002
# T_ref: = 25
# Q_pot: = 500000.0
# and numerical parameters
# dt: = 1800
# total time: = 2419200
#
# Time in hours        Heat released       
            0.00000000           0.00000000
         1800.00000000         141.34395583
         3600.00000000         209.24073133
         5400.00000000         249.30563470
         7200.00000000         276.29276787
         9000.00000000         296.03531304
        10800.00000000         311.29178633
        12600.00000000         323.54473261
        14400.00000000         333.66854657
        16200.00000000         342.21623392
        18000.00000000         349.55697598
        19800.00000000         355.94806292
        21600.00000000         361.57518036
        23400.00000000         366.57626728
        25200.00000000         371.05631282
        27000.00000000         375.09689706
        28800.00000000         378.76254969
        30600.00000000         382.10511062
        32400.00000000         385.16679547
        34200.00000000         387.98239817
        36000.00000000         390.58090434
        37800.00000000         392.98669352
        39600.00000000         395.22044908
        41400.00000000         397.29985627
        43200.00000000         399.24014481
        45000.00000000         401.05451526
        46800.00000000         402.75447769
        48600.00000000         404.35012332
        50400.00000000         405.85034419
        52200.00000000         407.26301245
        54000.00000000         408.59512764
        55800.00000000         409.85293860
        57600.00000000         411.04204502
        59400.00000000         412.16748261
        61200.00000000         413.23379482
        63000.00000000         414.24509367
        64800.00000000         415.20511155
        66600.00000000         416.11724556
        68400.00000000         416.98459563
        70200.00000000         417.80999740
        72000.00000000         418.59605074
        73800.00000000         419.34514457
        75600.00000000         420.05947851
        77400.00000000         420.74108189
        79200.00000000         421.39183037
        81000.00000000         422.01346071
        82800.00000000         422.60758376
        84600.00000000         423.17569596
        86400.00000000         423.71918963
        88200.00000000         424.23936211
        90000.00000000         424.73742392
        91800.00000000         425.21450609
        93600.00000000         425.67166670
        95400.00000000         426.10989684
        97200.00000000         426.53012590
        99000.00000000         426.93322640
       100800.00000000         427.32001837
       102600.00000000         427.69127325
       104400.00000000         428.04771755
       106200.00000000         428.39003607
       108000.00000000         428.71887489
       109800.00000000         429.03484410
       111600.00000000         429.33852030
       113400.00000000         429.63044885
       115200.00000000         429.91114599
       117000.00000000         430.18110072
       118800.00000000         430.44077664
       120600.00000000         430.69061350
       122400.00000000         430.93102873
       124200.00000000         431.16241885
       126000.00000000         431.38516072
       127800.00000000         431.59961274
       129600.00000000         431.80611596
       131400.00000000         432.00499506
       133200.00000000         432.19655934
       135000.00000000         432.38110359
       136800.00000000         432.55890891
       138600.00000000         432.73024344
       140400.00000000         432.89536314
       142200.00000000         433.05451238
       144000.00000000         433.20792464
       145800.00000000         433.35582300
       147600.00000000         433.49842077
       149400.00000000         433.63592195
       151200.00000000         433.76852171
       153000.00000000         433.89640685
       154800.00000000         434.01975625
       156600.00000000         434.13874118
       158400.00000000         434.25352577
       160200.00000000         434.36426729
       162000.00000000         434.47111652
       163800.00000000         434.57421805
       165600.00000000         434.67371054
       167400.00000000         434.76972707
       169200.00000000         434.86239533
       171000.00000000         434.95183790
       172800.00000000         435.03817248
       174600.00000000         435.12151210
       176400.00000000         435.20196536
       178200.00000000         435.27963659
       180000.00000000         435.35462605
       181800.00000000         435.42703013
       183600.00000000         435.49694149
       185400.00000000         435.56444923
       187200.00000000         435.62963905
       189000.00000000         435.69259340
       190800.00000000         435.75339159
       192600.00000000         435.81210993
       194400.00000000         435.86882190
       196200.00000000         435.92359820
       198000.00000000         435.97650689
       199800.00000000         436.02761354
       201600.00000000         436.07698125
       203400.00000000         436.12467083
       205200.00000000         436.17074083
       207000.00000000         436.21524766
       208800.00000000         436.25824570
       210600.00000000         436.29978731
       212400.00000000         436.33992298
       214200.00000000         436.37870136
       216000.00000000         436.41616934
       217800.00000000         436.45237215
       219600.00000000         436.48735338
       221400.00000000         436.52115505
       223200.00000000         436.55381770
       225000.00000000         436.58538041
       226800.00000000         436.61588089
       228600.00000000         436.64535551
       230400.00000000         436.67383934
       232200.00000000         436.70136622
       234000.00000000         436.72796881
       235800.00000000         436.75367862
       237600.00000000         436.77852603
       239400.00000000         436.80254038
       241200.00000000         436.82574999
       243000.00000000         436.84818218
       244800.00000000         436.86986333
       246600.00000000         436.89081888
       248400.00000000         436.91107341
       250200.00000000         436.93065064
       252000.00000000         436.94957348
       253800.00000000         436.96786403
       255600.00000000         436.98554365
       257400.00000000         437.00263294
       259200.00000000         437.01915180
       261000.00000000         437.03511947
       262800.00000000         437.05055449
       264600.00000000         437.06547480
       266400.00000000         437.07989770
       268200.00000000         437.09383991
       270000.00000000         437.10731758
       271800.00000000         437.12034632
       273600.00000000         437.13294118
       275400.00000000         437.14511671
       277200.00000000         437.15688698
       279000.00000000         437.16826557
       280800.00000000         437.17926560
       282600.00000000         437.18989973
       284400.00000000         437.20018022
       286200.00000000         437.21011889
       288000.00000000         437.21972718
       289800.00000000         437.22901613
       291600.00000000         437.23799640
       293400.00000000         437.24667832
       295200.00000000         437.25507184
       297000.00000000         437.26318658
       298800.00000000         437.27103185
       300600.00000000         437.27861664
       302400.00000000         437.28594964
       304200.00000000         437.29303924
       306000.00000000         437.29989354
       307800.00000000         437.30652040
       309600.00000000         437.31292739
       311400.00000000         437.31912182
       313200.00000000         437.32511078
       315000.00000000         437.33090111
       316800.00000000         437.33649941
       318600.00000000         437.34191207
       320400.00000000         437.34714528
       322200.00000000         437.35220499
       324000.00000000         437.35709697
       325800.00000000         437.36182681
       327600.00000000         437.36639988
       329400.00000000         437.37082141
       331200.00000000         437.37509642
       333000.00000000         437.37922978
       334800.00000000         437.38322620
       336600.00000000         437.38709022
       338400.00000000         437.39082624
       340200.00000000         437.39443851
       342000.00000000         437.39793114
       343800.00000000         437.40130810
       345600.00000000         437.40457322
       347400.00000000         437.40773021
       349200.00000000         437.41078267
       351000.00000000         437.41373407
       352800.00000000         437.41658774
       354600.00000000         437.41934694
       356400.00000000         437.42201480
       358200.00000000         437.42459434
       360000.00000000         437.42708849
       361800.00000000         437.42950009
       363600.00000000         437.43183186
       365400.00000000         437.43408647
       367200.00000000         437.43626645
       369000.00000000         437.43837429
       370800.00000000         437.44041238
       372600.00000000         437.44238303
       374400.00000000         437.44428846
       376200.00000000         437.44613085
       378000.00000000         437.44791228
       379800.00000000         437.44963477
       381600.00000000         437.45130026
       383400.00000000         437.45291066
       385200.00000000         437.45446778
       387000.00000000         437.45597339
       388800.00000000         437.45742919
       390600.00000000         437.45883683
       392400.00000000         437.46019791
       394200.00000000         437.46151397
       396000.00000000         437.46278649
       397800.00000000         437.46401692
       399600.00000000         437.46520666
       401400.00000000         437.46635705
       403200.00000000         437.46746938
       405000.00000000         437.46854493
       406800.00000000         437.46958491
       408600.00000000         437.47059049
       410400.00000000         437.47156282
       412200.00000000         437.47250299
       414000.00000000         437.47341207
       415800.00000000         437.47429109
       417600.00000000         437.47514104
       419400.00000000         437.47596288
       421200.00000000         437.47675755
       423000.00000000         437.47752593
       424800.00000000         437.47826891
       426600.00000000         437.47898733
       428400.00000000         437.47968198
       430200.00000000         437.48035367
       432000.00000000         437.48100315
       433800.00000000         437.48163115
       435600.00000000         437.48223839
       437400.00000000         437.48282555
       439200.00000000         437.48339330
       441000.00000000         437.48394228
       442800.00000000         437.48447311
       444600.00000000         437.48498638
       446400.00000000         437.48548269
       448200.00000000         437.48596258
       450000.00000000         437.48642661
       451800.00000000         437.48687530
       453600.00000000         437.48730916
       455400.00000000         437.48772867
       457200.00000000         437.48813431
       459000.00000000         437.48852655
       460800.00000000         437.48890581
       462600.00000000         437.48927254
       464400.00000000         437.48962714
       466200.00000000         437.48997002
       468000.00000000         437.49030157
       469800.00000000         437.49062215
       471600.00000000         437.49093214
       473400.00000000         437.49123188
       475200.00000000         437.49152171
       477000.00000000         437.49180196
       478800.00000000         437.49207294
       480600.00000000         437.49233497
       482400.00000000         437.49258833
       484200.00000000         437.49283332
       486000.00000000         437.49307021
       487800.00000000         437.49329927
       489600.00000000         437.49352076
       491400.00000000         437.49373493
       493200.00000000         437.49394202
       495000.00000000         437.49414226
       496800.00000000         437.49433588
       498600.00000000         437.49452310
       500400.00000000         437.49470414
       502200.00000000         437.49487918
       504000.00000000         437.49504845
       505800.00000000         437.49521211
       507600.00000000         437.49537037
       509400.00000000         437.49552340
       511200.00000000         437.49567137
       513000.00000000         437.49581444
       514800.00000000         437.49595279
       516600.00000000         437.49608657
       518400.00000000         437.49621592
       520200.00000000         437.49634099
       522000.00000000         437.49646194
       523800.00000000         437.49657888
       525600.00000000         437.49669196
       527400.00000000         437.49680130
       529200.00000000         437.49690703
       531000.00000000         437.49700926
       532800.00000000         437.49710812
       534600.00000000         437.49720370
       536400.00000000         437.49729613
       538200.00000000         437.49738550
       540000.00000000         437.49747192
       541800.00000000         437.49755548
       543600.00000000         437.49763628
       545400.00000000         437.49771440
       547200.00000000         437.49778995
       549000.00000000         437.49786300
       550800.00000000         437.49793363
       552600.00000000         437.49800193
       554400.00000000         437.49806797
       556200.00000000         437.49813183
       558000.00000000         437.49819358
       559800.00000000         437.49825329
       561600.00000000         437.49831102
       563400.00000000         437.49836685
       565200.00000000         437.49842083
       567000.00000000         437.49847302
       568800.00000000         437.49852349
       570600.00000000         437.49857230
       572400.00000000         437.49861949
       574200.00000000         437.49866511
       576000.00000000         437.49870924
       577800.00000000         437.49875190
       579600.00000000         437.49879315
       581400.00000000         437.49883304
       583200.00000000         437.49887161
       585000.00000000         437.49890891
       586800.00000000         437.49894497
       588600.00000000         437.49897984
       590400.00000000         437.49901356
       592200.00000000         437.49904617
       594000.00000000         437.49907769
       595800.00000000         437.49910818
       597600.00000000         437.49913765
       599400.00000000         437.49916616
       601200.00000000         437.49919372
       603000.00000000         437.49922037
       604800.00000000         437.49924614
       606600.00000000         437.49927105
       608400.00000000         437.49929515
       610200.00000000         437.49931844
       612000.00000000         437.49934097
       613800.00000000         437.49936275
       615600.00000000         437.49938382
       617400.00000000         437.49940418
       619200.00000000         437.49942388
       621000.00000000         437.49944292
       622800.00000000         437.49946133
       624600.00000000         437.49947913
       626400.00000000         437.49949635
       628200.00000000         437.49951300
       630000.00000000         437.49952909
       631800.00000000         437.49954466
       633600.00000000         437.49955971
       635400.00000000         437.49957426
       637200.00000000         437.49958833
       639000.00000000         437.49960194
       640800.00000000         437.49961510
       642600.00000000         437.49962782
       644400.00000000         437.49964012
       646200.00000000         437.49965201
       648000.00000000         437.49966352
       649800.00000000         437.49967464
       651600.00000000         437.49968539
       653400.00000000         437.49969579
       655200.00000000         437.49970585
       657000.00000000         437.49971557
       658800.00000000         437.49972497
       660600.00000000         437.49973406
       662400.00000000         437.49974285
       664200.00000000         437.49975135
       666000.00000000         437.49975957
       667800.00000000         437.49976751
       669600.00000000         437.49977520
       671400.00000000         437.49978263
       673200.00000000         437.49978981
       675000.00000000         437.49979676
       676800.00000000         437.49980348
       678600.00000000         437.49980997
       680400.00000000         437.49981625
       682200.00000000         437.49982233
       684000.00000000         437.49982820
       685800.00000000         437.49983388
       687600.00000000         437.49983937
       689400.00000000         437.49984468
       691200.00000000         437.49984981
       693000.00000000         437.49985478
       694800.00000000         437.49985958
       696600.00000000         437.49986422
       698400.00000000         437.49986871
       700200.00000000         437.49987304
       702000.00000000         437.49987724
       703800.00000000         437.49988130
       705600.00000000         437.49988522
       707400.00000000         437.49988902
       709200.00000000         437.49989268
       711000.00000000         437.49989623
       712800.00000000         437.49989966
       714600.00000000         437.49990298
       716400.00000000         437.49990618
       718200.00000000         437.49990928
       720000.00000000         437.49991228
       721800.00000000         437.49991518
       723600.00000000         437.49991799
       725400.00000000         437.49992070
       727200.00000000         437.49992332
       729000.00000000         437.49992585
       730800.00000000         437.49992830
       732600.00000000         437.49993067
       734400.00000000         437.49993296
       736200.00000000         437.49993518
       738000.00000000         437.49993732
       739800.00000000         437.49993939
       741600.00000000         437.49994140
       743400.00000000         437.49994333
       745200.00000000         437.49994521
       747000.00000000         437.49994702
       748800.00000000         437.49994877
       750600.00000000         437.49995046
       752400.00000000         437.49995210
       754200.00000000         437.49995368
       756000.00000000         437.49995521
       757800.00000000         437.49995669
       759600.00000000         437.49995813
       761400.00000000         437.49995951
       763200.00000000         437.49996085
       765000.00000000         437.49996214
       766800.00000000         437.49996339
       768600.00000000         437.49996460
       770400.00000000         437.49996577
       772200.00000000         437.49996690
       774000.00000000         437.49996800
       775800.00000000         437.49996906
       777600.00000000         437.49997008
       779400.00000000         437.49997107
       781200.00000000         437.49997202
       783000.00000000         437.49997295
       784800.00000000         437.49997384
       786600.00000000         437.49997471
       788400.00000000         437.49997554
       790200.00000000         437.49997635
       792000.00000000         437.49997713
       793800.00000000         437.49997789
       795600.00000000         437.49997862
       797400.00000000         437.49997933
       799200.00000000         437.49998001
       801000.00000000         437.49998067
       802800.00000000         437.49998131
