# Artificial heat of hydration data, at temperature 20
# With material paramters:
# B1: 0.0002916
# B2: = 0.0024229
# eta: = 5.554
# alpha_max: = 0.875
# E_act: = 47002
# T_ref: = 25
# Q_pot: = 500000.0
# and numerical parameters
# dt: = 1800
# total time: = 2419200
#
# Time in hours        Heat released       
            0.00000000           0.00000000
         1800.00000000           0.67886588
         3600.00000000           1.66855847
         5400.00000000           3.08779030
         7200.00000000           5.07836677
         9000.00000000           7.79186777
        10800.00000000          11.36475443
        12600.00000000          15.88628009
        14400.00000000          21.37068787
        16200.00000000          27.74669558
        18000.00000000          34.86966904
        19800.00000000          42.55038870
        21600.00000000          50.58791711
        23400.00000000          58.79595362
        25200.00000000          67.01823268
        27000.00000000          75.13384421
        28800.00000000          83.05574875
        30600.00000000          90.72582597
        32400.00000000          98.10885128
        34200.00000000         105.18675828
        36000.00000000         111.95378221
        37800.00000000         118.41262716
        39600.00000000         124.57157872
        41400.00000000         130.44240052
        43200.00000000         136.03884212
        45000.00000000         141.37560541
        46800.00000000         146.46764555
        48600.00000000         151.32971155
        50400.00000000         155.97605548
        52200.00000000         160.42025904
        54000.00000000         164.67514031
        55800.00000000         168.75271476
        57600.00000000         172.66419186
        59400.00000000         176.41999463
        61200.00000000         180.02979334
        63000.00000000         183.50254713
        64800.00000000         186.84654959
        66600.00000000         190.06947550
        68400.00000000         193.17842709
        70200.00000000         196.17997859
        72000.00000000         199.08021836
        73800.00000000         201.88478850
        75600.00000000         204.59892156
        77400.00000000         207.22747437
        79200.00000000         209.77495924
        81000.00000000         212.24557246
        82800.00000000         214.64322034
        84600.00000000         216.97154301
        86400.00000000         219.23393609
        88200.00000000         221.43357043
        90000.00000000         223.57341009
        91800.00000000         225.65622870
        93600.00000000         227.68462438
        95400.00000000         229.66103333
        97200.00000000         231.58774224
        99000.00000000         233.46689955
       100800.00000000         235.30052579
       102600.00000000         237.09052304
       104400.00000000         238.83868349
       106200.00000000         240.54669740
       108000.00000000         242.21616027
       109800.00000000         243.84857953
       111600.00000000         245.44538058
       113400.00000000         247.00791239
       115200.00000000         248.53745266
       117000.00000000         250.03521255
       118800.00000000         251.50234103
       120600.00000000         252.93992891
       122400.00000000         254.34901256
       124200.00000000         255.73057732
       126000.00000000         257.08556072
       127800.00000000         258.41485538
       129600.00000000         259.71931174
       131400.00000000         260.99974061
       133200.00000000         262.25691550
       135000.00000000         263.49157478
       136800.00000000         264.70442376
       138600.00000000         265.89613652
       140400.00000000         267.06735771
       142200.00000000         268.21870417
       144000.00000000         269.35076645
       145800.00000000         270.46411028
       147600.00000000         271.55927784
       149400.00000000         272.63678908
       151200.00000000         273.69714283
       153000.00000000         274.74081792
       154800.00000000         275.76827423
       156600.00000000         276.77995360
       158400.00000000         277.77628077
       160200.00000000         278.75766423
       162000.00000000         279.72449699
       163800.00000000         280.67715739
       165600.00000000         281.61600971
       167400.00000000         282.54140493
       169200.00000000         283.45368132
       171000.00000000         284.35316502
       172800.00000000         285.24017060
       174600.00000000         286.11500160
       176400.00000000         286.97795106
       178200.00000000         287.82930189
       180000.00000000         288.66932745
       181800.00000000         289.49829183
       183600.00000000         290.31645038
       185400.00000000         291.12405000
       187200.00000000         291.92132953
       189000.00000000         292.70852007
       190800.00000000         293.48584534
       192600.00000000         294.25352197
       194400.00000000         295.01175975
       196200.00000000         295.76076196
       198000.00000000         296.50072563
       199800.00000000         297.23184173
       201600.00000000         297.95429549
       203400.00000000         298.66826657
       205200.00000000         299.37392927
       207000.00000000         300.07145280
       208800.00000000         300.76100139
       210600.00000000         301.44273453
       212400.00000000         302.11680716
       214200.00000000         302.78336978
       216000.00000000         303.44256867
       217800.00000000         304.09454602
       219600.00000000         304.73944006
       221400.00000000         305.37738525
       223200.00000000         306.00851236
       225000.00000000         306.63294866
       226800.00000000         307.25081797
       228600.00000000         307.86224085
       230400.00000000         308.46733466
       232200.00000000         309.06621370
       234000.00000000         309.65898930
       235800.00000000         310.24576994
       237600.00000000         310.82666131
       239400.00000000         311.40176642
       241200.00000000         311.97118570
       243000.00000000         312.53501708
       244800.00000000         313.09335605
       246600.00000000         313.64629576
       248400.00000000         314.19392708
       250200.00000000         314.73633871
       252000.00000000         315.27361717
       253800.00000000         315.80584696
       255600.00000000         316.33311055
       257400.00000000         316.85548849
       259200.00000000         317.37305943
       261000.00000000         317.88590023
       262800.00000000         318.39408594
       264600.00000000         318.89768993
       266400.00000000         319.39678389
       268200.00000000         319.89143789
       270000.00000000         320.38172045
       271800.00000000         320.86769854
       273600.00000000         321.34943769
       275400.00000000         321.82700196
       277200.00000000         322.30045404
       279000.00000000         322.76985524
       280800.00000000         323.23526556
       282600.00000000         323.69674374
       284400.00000000         324.15434726
       286200.00000000         324.60813237
       288000.00000000         325.05815418
       289800.00000000         325.50446664
       291600.00000000         325.94712256
       293400.00000000         326.38617371
       295200.00000000         326.82167077
       297000.00000000         327.25366340
       298800.00000000         327.68220028
       300600.00000000         328.10732909
       302400.00000000         328.52909657
       304200.00000000         328.94754855
       306000.00000000         329.36272993
       307800.00000000         329.77468475
       309600.00000000         330.18345621
       311400.00000000         330.58908666
       313200.00000000         330.99161762
       315000.00000000         331.39108985
       316800.00000000         331.78754333
       318600.00000000         332.18101727
       320400.00000000         332.57155016
       322200.00000000         332.95917977
       324000.00000000         333.34394317
       325800.00000000         333.72587674
       327600.00000000         334.10501621
       329400.00000000         334.48139664
       331200.00000000         334.85505248
       333000.00000000         335.22601753
       334800.00000000         335.59432501
       336600.00000000         335.96000754
       338400.00000000         336.32309715
       340200.00000000         336.68362533
       342000.00000000         337.04162300
       343800.00000000         337.39712054
       345600.00000000         337.75014782
       347400.00000000         338.10073419
       349200.00000000         338.44890848
       351000.00000000         338.79469905
       352800.00000000         339.13813377
       354600.00000000         339.47924004
       356400.00000000         339.81804480
       358200.00000000         340.15457454
       360000.00000000         340.48885531
       361800.00000000         340.82091274
       363600.00000000         341.15077201
       365400.00000000         341.47845793
       367200.00000000         341.80399487
       369000.00000000         342.12740681
       370800.00000000         342.44871738
       372600.00000000         342.76794978
       374400.00000000         343.08512688
       376200.00000000         343.40027116
       378000.00000000         343.71340477
       379800.00000000         344.02454948
       381600.00000000         344.33372675
       383400.00000000         344.64095769
       385200.00000000         344.94626309
       387000.00000000         345.24966342
       388800.00000000         345.55117882
       390600.00000000         345.85082914
       392400.00000000         346.14863394
       394200.00000000         346.44461244
       396000.00000000         346.73878362
       397800.00000000         347.03116615
       399600.00000000         347.32177842
       401400.00000000         347.61063855
       403200.00000000         347.89776441
       405000.00000000         348.18317358
       406800.00000000         348.46688341
       408600.00000000         348.74891096
       410400.00000000         349.02927308
       412200.00000000         349.30798636
       414000.00000000         349.58506715
       415800.00000000         349.86053157
       417600.00000000         350.13439551
       419400.00000000         350.40667464
       421200.00000000         350.67738439
       423000.00000000         350.94654000
       424800.00000000         351.21415647
       426600.00000000         351.48024862
       428400.00000000         351.74483103
       430200.00000000         352.00791810
       432000.00000000         352.26952403
       433800.00000000         352.52966284
       435600.00000000         352.78834832
       437400.00000000         353.04559410
       439200.00000000         353.30141363
       441000.00000000         353.55582016
       442800.00000000         353.80882678
       444600.00000000         354.06044639
       446400.00000000         354.31069173
       448200.00000000         354.55957537
       450000.00000000         354.80710970
       451800.00000000         355.05330697
       453600.00000000         355.29817925
       455400.00000000         355.54173847
       457200.00000000         355.78399638
       459000.00000000         356.02496461
       460800.00000000         356.26465462
       462600.00000000         356.50307773
       464400.00000000         356.74024510
       466200.00000000         356.97616777
       468000.00000000         357.21085663
       469800.00000000         357.44432244
       471600.00000000         357.67657581
       473400.00000000         357.90762723
       475200.00000000         358.13748705
       477000.00000000         358.36616550
       478800.00000000         358.59367268
       480600.00000000         358.82001856
       482400.00000000         359.04521300
       484200.00000000         359.26926572
       486000.00000000         359.49218635
       487800.00000000         359.71398438
       489600.00000000         359.93466918
       491400.00000000         360.15425004
       493200.00000000         360.37273610
       495000.00000000         360.59013642
       496800.00000000         360.80645993
       498600.00000000         361.02171547
       500400.00000000         361.23591177
       502200.00000000         361.44905745
       504000.00000000         361.66116104
       505800.00000000         361.87223098
       507600.00000000         362.08227557
       509400.00000000         362.29130306
       511200.00000000         362.49932158
       513000.00000000         362.70633918
       514800.00000000         362.91236380
       516600.00000000         363.11740329
       518400.00000000         363.32146544
       520200.00000000         363.52455792
       522000.00000000         363.72668832
       523800.00000000         363.92786415
       525600.00000000         364.12809284
       527400.00000000         364.32738173
       529200.00000000         364.52573807
       531000.00000000         364.72316904
       532800.00000000         364.91968174
       534600.00000000         365.11528319
       536400.00000000         365.30998033
       538200.00000000         365.50378003
       540000.00000000         365.69668908
       541800.00000000         365.88871419
       543600.00000000         366.07986202
       545400.00000000         366.27013913
       547200.00000000         366.45955202
       549000.00000000         366.64810712
       550800.00000000         366.83581081
       552600.00000000         367.02266936
       554400.00000000         367.20868901
       556200.00000000         367.39387593
       558000.00000000         367.57823620
       559800.00000000         367.76177586
       561600.00000000         367.94450087
       563400.00000000         368.12641715
       565200.00000000         368.30753054
       567000.00000000         368.48784681
       568800.00000000         368.66737171
       570600.00000000         368.84611088
       572400.00000000         369.02406993
       574200.00000000         369.20125442
       576000.00000000         369.37766984
       577800.00000000         369.55332162
       579600.00000000         369.72821514
       581400.00000000         369.90235573
       583200.00000000         370.07574866
       585000.00000000         370.24839914
       586800.00000000         370.42031236
       588600.00000000         370.59149341
       590400.00000000         370.76194736
       592200.00000000         370.93167924
       594000.00000000         371.10069399
       595800.00000000         371.26899654
       597600.00000000         371.43659176
       599400.00000000         371.60348445
       601200.00000000         371.76967939
       603000.00000000         371.93518131
       604800.00000000         372.09999488
       606600.00000000         372.26412474
       608400.00000000         372.42757547
       610200.00000000         372.59035163
       612000.00000000         372.75245770
       613800.00000000         372.91389815
       615600.00000000         373.07467739
       617400.00000000         373.23479979
       619200.00000000         373.39426969
       621000.00000000         373.55309137
       622800.00000000         373.71126908
       624600.00000000         373.86880703
       626400.00000000         374.02570940
       628200.00000000         374.18198031
       630000.00000000         374.33762385
       631800.00000000         374.49264408
       633600.00000000         374.64704502
       635400.00000000         374.80083063
       637200.00000000         374.95400488
       639000.00000000         375.10657165
       640800.00000000         375.25853483
       642600.00000000         375.40989824
       644400.00000000         375.56066569
       646200.00000000         375.71084094
       648000.00000000         375.86042772
       649800.00000000         376.00942973
       651600.00000000         376.15785064
       653400.00000000         376.30569407
       655200.00000000         376.45296362
       657000.00000000         376.59966286
       658800.00000000         376.74579532
       660600.00000000         376.89136451
       662400.00000000         377.03637390
       664200.00000000         377.18082692
       666000.00000000         377.32472700
       667800.00000000         377.46807750
       669600.00000000         377.61088179
       671400.00000000         377.75314318
       673200.00000000         377.89486496
       675000.00000000         378.03605040
       676800.00000000         378.17670274
       678600.00000000         378.31682518
       680400.00000000         378.45642091
       682200.00000000         378.59549307
       684000.00000000         378.73404479
       685800.00000000         378.87207916
       687600.00000000         379.00959928
       689400.00000000         379.14660817
       691200.00000000         379.28310885
       693000.00000000         379.41910433
       694800.00000000         379.55459757
       696600.00000000         379.68959152
       698400.00000000         379.82408910
       700200.00000000         379.95809319
       702000.00000000         380.09160668
       703800.00000000         380.22463241
       705600.00000000         380.35717320
       707400.00000000         380.48923185
       709200.00000000         380.62081114
       711000.00000000         380.75191382
       712800.00000000         380.88254263
       714600.00000000         381.01270026
       716400.00000000         381.14238942
       718200.00000000         381.27161276
       720000.00000000         381.40037292
       721800.00000000         381.52867253
       723600.00000000         381.65651419
       725400.00000000         381.78390047
       727200.00000000         381.91083394
       729000.00000000         382.03731713
       730800.00000000         382.16335255
       732600.00000000         382.28894272
       734400.00000000         382.41409009
       736200.00000000         382.53879714
       738000.00000000         382.66306629
       739800.00000000         382.78689997
       741600.00000000         382.91030058
       743400.00000000         383.03327049
       745200.00000000         383.15581208
       747000.00000000         383.27792767
       748800.00000000         383.39961960
       750600.00000000         383.52089017
       752400.00000000         383.64174168
       754200.00000000         383.76217638
       756000.00000000         383.88219655
       757800.00000000         384.00180440
       759600.00000000         384.12100217
       761400.00000000         384.23979204
       763200.00000000         384.35817622
       765000.00000000         384.47615686
       766800.00000000         384.59373611
       768600.00000000         384.71091611
       770400.00000000         384.82769899
       772200.00000000         384.94408683
       774000.00000000         385.06008174
       775800.00000000         385.17568577
       777600.00000000         385.29090099
       779400.00000000         385.40572943
       781200.00000000         385.52017313
       783000.00000000         385.63423408
       784800.00000000         385.74791428
       786600.00000000         385.86121572
       788400.00000000         385.97414035
       790200.00000000         386.08669013
       792000.00000000         386.19886700
       793800.00000000         386.31067287
       795600.00000000         386.42210965
       797400.00000000         386.53317924
       799200.00000000         386.64388351
       801000.00000000         386.75422434
       802800.00000000         386.86420356
